672.79272	3876
676.3017	3813
679.80933	3679
683.31555	3633
686.81848	3564
690.32202	3483
693.82422	3344
697.32507	3227
700.82458	3204
704.32068	3146
707.8175	3118
711.31293	3004
714.80701	2938
718.29974	2924
721.78912	2958
725.27917	2823
728.76788	2862
732.25519	2817
735.7392	2819
739.22388	2845
742.70715	2730
746.18713	2747
749.66772	2747
753.14703	2644
756.62299	2711
760.09955	2699
763.57483	2731
767.04675	2694
770.51935	2703
773.9906	2791
777.4585	2800
780.92706	2792
784.39435	2736
787.85822	2718
791.32281	2802
794.78406	2787
798.24597	2836
801.70459	2862
805.16382	2857
808.6217	2795
812.07635	2875
815.53156	2889
818.98352	2837
822.43616	2890
825.88544	2843
829.33539	2764
832.78204	2858
836.22937	2776
839.67334	2700
843.11804	2725
846.55939	2651
849.99945	2630
853.44012	2602
856.87756	2620
860.31561	2671
863.75043	2548
867.18585	2610
870.61798	2623
874.04883	2639
877.48029	2594
880.90851	2633
884.33539	2633
887.76294	2703
891.18726	2641
894.61218	2642
898.03381	2612
901.45416	2647
904.87323	2610
908.29291	2669
911.70935	2735
915.12445	2762
918.54022	2760
921.95276	2861
925.36395	3083
928.77386	3343
932.18445	4162
935.59174	5020
938.99774	6065
942.40247	7179
945.8078	7161
949.20996	7200
952.61078	6962
956.01031	7048
959.40851	7001
962.80542	7155
966.203	7196
969.59735	7133
972.99042	7143
976.3822	7159
979.77264	7056
983.16187	7008
986.54974	6675
989.93634	5896
993.32361	4828
996.70764	4084
1000.0903	3735
1003.4718	3337
1006.852	3136
1010.2309	2892
1013.6085	2731
1016.9848	2643
1020.3598	2490
1023.7336	2361
1027.1061	2134
1030.4773	2104
1033.8472	1954
1037.2158	1920
1040.5831	1848
1043.9492	1773
1047.3141	1771
1050.6776	1714
1054.0399	1699
1057.4009	1693
1060.7587	1658
1064.1171	1660
1067.4742	1648
1070.8302	1665
1074.1848	1602
1077.5381	1634
1080.8903	1574
1084.2411	1581
1087.5886	1570
1090.937	1589
1094.2839	1575
1097.6298	1499
1100.9742	1537
1104.3175	1606
1107.6575	1554
1110.9982	1507
1114.3376	1512
1117.6758	1561
1121.0109	1555
1124.3466	1506
1127.6809	1531
1131.014	1531
1134.344	1494
1137.6747	1486
1141.004	1531
1144.3302	1495
1147.6571	1503
1150.9827	1492
1154.3052	1453
1157.6283	1415
1160.9501	1398
1164.2688	1498
1167.5881	1507
1170.9063	1464
1174.2212	1418
1177.5369	1418
1180.8494	1369
1184.1625	1455
1187.4742	1417
1190.7831	1418
1194.0924	1407
1197.3987	1391
1200.7056	1376
1204.0093	1403
1207.3137	1384
1210.615	1404
1213.9169	1394
1217.2157	1402
1220.5151	1383
1223.8115	1344
1227.1084	1365
1230.4023	1338
1233.6968	1299
1236.9882	1310
1240.2783	1303
1243.5691	1321
1246.8568	1355
1250.1451	1349
1253.4303	1348
1256.7144	1304
1259.999	1334
1263.2805	1308
1266.5626	1339
1269.8418	1337
1273.1196	1331
1276.3981	1318
1279.6735	1347
1282.9476	1267
1286.2206	1274
1289.4941	1310
1292.7646	1318
1296.0339	1291
1299.304	1240
1302.5707	1234
1305.8363	1293
1309.1007	1297
1312.3658	1233
1315.6278	1337
1318.8885	1294
1322.1481	1365
1325.4064	1332
1328.6653	1392
1331.9211	1401
1335.1759	1543
1338.4293	1677
1341.6815	1822
1344.9326	1832
1348.1824	1748
1351.4329	1688
1354.6803	1530
1357.9264	1463
1361.1714	1425
1364.4152	1322
1367.6577	1259
1370.8992	1303
1374.1393	1244
1377.3783	1292
1380.616	1282
1383.8525	1296
1387.0879	1265
1390.322	1268
1393.5549	1271
1396.7866	1218
1400.0172	1223
1403.2466	1217
1406.4747	1174
1409.7017	1263
1412.9274	1153
1416.1519	1160
1419.3752	1163
1422.5974	1173
1425.8184	1122
1429.0381	1139
1432.2549	1159
1435.4723	1215
1438.6885	1123
1441.9034	1152
1445.1172	1210
1448.3298	1171
1451.5394	1207
1454.7496	1167
1457.9587	1137
1461.1666	1076
1464.3733	1138
1467.5769	1176
1470.7813	1081
1473.9844	1099
1477.1863	1130
1480.3851	1083
1483.5847	1121
1486.7831	1121
1489.9803	1093
1493.1746	1117
1496.3694	1066
1499.563	1126
1502.7537	1114
1505.9449	1131
1509.1351	1148
1512.3223	1136
1515.51	1084
1518.6967	1109
1521.8802	1150
1525.0645	1142
1528.2457	1115
1531.4276	1082
1534.6084	1139
1537.7861	1112
1540.9645	1123
1544.1399	1196
1547.3159	1173
1550.489	1268
1553.6627	1253
1556.8335	1293
1560.0049	1400
1563.1732	1469
1566.3423	1642
1569.5083	1933
1572.675	2314
1575.8387	2965
1579.0032	3751
1582.1646	4671
1585.3248	5790
1588.4857	6186
1591.6437	5326
1594.8022	3761
1597.9579	2693
1601.1124	2127
1604.2675	1710
1607.4197	1483
1610.5706	1375
1613.7223	1275
1616.871	1288
1620.0184	1230
1623.1666	1217
1626.3119	1226
1629.4559	1150
1632.6006	1110
1635.7424	1065
1638.8831	1063
1642.0225	999
1645.1626	976
1648.2998	982
1651.4358	1002
1654.5707	1000
1657.7043	975
1660.8387	946
1663.9702	919
1667.1005	943
1670.2296	937
1673.3577	959
1676.4845	922
1679.6119	901
1682.7366	982
1685.86	912
1688.9823	874
1692.1035	956
1695.2235	875
1698.3424	915
1701.4601	859
1704.5767	844
1707.6921	902
1710.8065	941
1713.9197	873
1717.0317	865
1720.1427	848
1723.2524	873
1726.3612	889
1729.4688	839
1732.5751	856
1735.6804	847
1738.7845	854
1741.8876	853
1744.9894	892
1748.0902	835
1751.1898	888
1754.2883	858
1757.3856	883
1760.4801	887
1763.5753	862
1766.6693	798
1769.7621	813
1772.8539	834
1775.9445	858
1779.0322	887
1782.1206	850
1785.2079	894
1788.2941	887
1791.379	834
1794.4612	860
1797.5439	849
1800.6256	815
1803.7045	830
1806.7839	891
1809.8622	841
1812.9395	792
1816.0138	854
1819.0887	848
1822.1626	834
1825.2335	887
1828.3052	825
1831.3757	834
1834.4434	793
1837.5117	810
1840.5771	813
1843.6432	811
1846.7083	874
1849.7703	817
1852.8331	853
1855.8929	830
1858.9535	867
1862.0112	861
1865.0696	874
1868.125	820
1871.1812	845
1874.2345	840
1877.2885	869
1880.3395	845
1883.3912	809
1886.4401	828
1889.4896	815
1892.5363	819
1895.5836	775
1898.6281	775
1901.6715	776
1904.7155	729
1907.7567	817
1910.7985	782
1913.8375	751
1916.8755	775
1919.9139	770
1922.9497	758
1925.9844	775
1929.0197	790
1932.052	758
1935.0834	757
1938.1136	790
1941.1447	765
1944.1727	777
1947.1997	767
1950.2256	794
1953.2522	759
1956.2759	753
1959.2986	790
1962.3201	762
1965.3406	783
1968.3617	786
1971.38	809
1974.3973	821
1977.4135	775
1980.4285	806
1983.4425	812
1986.4554	798
1989.469	808
1992.4797	766
1995.4894	808
1998.498	806
2001.5055	781
2004.512	800
2007.5173	774
2010.5216	783
2013.5248	723
2016.527	745
2019.5281	762
2022.528	757
2025.527	745
2028.5248	741
2031.5215	719
2034.5172	740
2037.5118	722
2040.5055	693
2043.4979	697
2046.4894	761
2049.478	706
2052.4673	673
2055.4556	736
2058.4426	688
2061.4287	669
2064.4138	695
2067.3977	752
2070.3789	737
2073.3608	667
2076.3416	696
2079.3213	703
2082.2998	715
2085.2759	699
2088.2522	693
2091.2278	671
2094.2004	657
2097.1738	690
2100.146	680
2103.1172	699
2106.0857	678
2109.0549	658
2112.0229	692
2114.9883	662
2117.9541	658
2120.9192	693
2123.8813	675
2126.844	653
2129.804	711
2132.7646	683
2135.7244	691
2138.6812	675
2141.6387	681
2144.5935	648
2147.5491	675
2150.5017	646
2153.4551	638
2156.4055	676
2159.3569	608
2162.3054	656
2165.2544	674
2168.2009	638
2171.1479	632
2174.0923	648
2177.0374	649
2179.9795	634
2182.9224	632
2185.8625	641
2188.8015	647
2191.7415	636
2194.6785	596
2197.6145	668
2200.551	649
2203.4849	659
2206.418	641
2209.3513	596
2212.2822	651
2215.2119	645
2218.1423	618
2221.0701	676
2223.9968	621
2226.9224	659
2229.8486	654
2232.7722	681
2235.6948	644
2238.6162	652
2241.5366	626
2244.4578	664
2247.3762	670
2250.2937	652
2253.21	645
2256.1252	659
2259.0396	628
2261.9546	624
2264.8669	629
2267.7781	630
2270.6882	614
2273.5974	644
2276.5056	620
2279.4126	624
2282.3188	664
2285.2239	617
2288.1279	624
2291.031	636
2293.9329	637
2296.834	592
2299.7339	631
2302.6328	614
2305.5308	572
2308.4277	582
2311.3237	637
2314.2185	609
2317.1123	616
2320.0051	647
2322.8955	617
2325.7861	614
2328.676	591
2331.5649	608
2334.4526	595
2337.3394	593
2340.2251	597
2343.1082	606
2345.9919	575
2348.8748	600
2351.7563	578
2354.6355	612
2357.5151	611
2360.3938	574
2363.2715	597
2366.1465	596
2369.0222	640
2371.8967	620
2374.7688	636
2377.6414	614
2380.5132	604
2383.3821	627
2386.2517	610
2389.1204	629
2391.9863	607
2394.853	597
2397.7185	631
2400.5815	606
2403.4451	584
2406.3062	627
2409.1677	652
2412.0266	638
2414.8862	676
2417.7434	647
2420.6008	672
2423.4558	658
2426.3115	635
2429.1646	682
2432.0183	691
2434.8691	709
2437.7209	720
2440.5698	785
2443.4197	810
2446.2666	876
2449.1125	928
2451.9592	968
2454.8035	1099
2457.6482	1103
2460.4902	1092
2463.3313	1145
2466.1731	1064
2469.0122	1028
2471.8503	995
2474.6875	901
2477.5251	924
2480.3604	911
2483.1946	877
2486.0278	820
2488.8616	814
2491.6929	772
2494.5232	836
2497.3525	697
2500.1824	768
2503.0098	725
2505.8359	724
2508.6614	720
2511.4858	713
2514.3091	687
2517.1316	656
2519.9546	681
2522.7751	675
2525.5945	683
2528.4131	686
2531.2305	665
2534.0471	664
2536.8625	683
2539.6772	673
2542.491	634
2545.3035	637
2548.1152	666
2550.9258	666
2553.7356	691
2556.5444	655
2559.3521	684
2562.1589	693
2564.9648	685
2567.7698	666
2570.5737	671
2573.375	724
2576.177	653
2578.978	708
2581.7778	670
2584.5769	717
2587.375	702
2590.1724	691
2592.9668	736
2595.762	711
2598.5562	700
2601.3496	751
2604.1404	722
2606.9316	788
2609.7219	784
2612.5115	802
2615.2983	812
2618.0857	875
2620.8723	861
2623.658	952
2626.4409	1046
2629.2246	1060
2632.0059	1150
2634.7876	1175
2637.5684	1391
2640.3464	1482
2643.1255	1695
2645.9033	1958
2648.6787	2308
2651.4548	2723
2654.2283	3233
2657.0024	3896
2659.7739	4683
2662.5461	5585
2665.3157	6788
2668.0862	8244
2670.8538	9574
2673.6223	10776
2676.3882	12024
2679.1545	12747
2681.9185	13016
2684.6831	12767
2687.4453	11940
2690.2063	11012
2692.968	9680
2695.7273	8336
2698.4873	7058
2701.2446	5855
2704.001	4864
2706.7581	4040
2709.5125	3321
2712.2661	2860
2715.0186	2480
2717.772	2129
2720.5227	1904
2723.2725	1650
2726.0229	1452
2728.7708	1380
2731.5178	1249
2734.2637	1147
2737.0088	1049
2739.7546	1057
2742.4978	991
2745.24	895
2747.9814	894
2750.7219	830
2753.4612	811
2756.2	782
2758.939	762
2761.6758	707
2764.4114	696
2767.1462	721
2769.8801	696
2772.613	709
2775.345	626
2778.0762	637
2780.8062	633
2783.5354	626
2786.2637	633
2788.991	614
2791.7175	611
2794.4429	590
2797.1675	601
2799.8911	566
2802.6138	574
2805.334	590
2808.0549	573
2810.7749	565
2813.4939	551
2816.2119	534
2818.9292	585
2821.6453	556
2824.3591	555
2827.0735	553
2829.7869	548
2832.4995	623
2835.2112	548
2837.9202	564
2840.6299	510
2843.3389	548
2846.0469	547
2848.7522	529
2851.4583	533
2854.1636	540
2856.8662	517
2859.5696	545
2862.272	500
2864.9719	545
2867.6726	569
2870.3706	521
2873.0696	539
2875.7673	523
2878.4626	494
2881.1587	513
2883.8523	500
2886.5466	518
2889.2383	549
2891.9307	514
2894.6206	516
2897.311	483
2899.9993	486
2902.688	488
2905.3743	488
2908.061	509
2910.7456	488
2913.4307	515
2916.1133	521
2918.7952	487
2921.4775	512
2924.1575	487
2926.8379	503
2929.5161	477
2932.1934	500
2934.8696	478
2937.5466	461
2940.2212	490
2942.8948	493
2945.5691	480
2948.2407	487
2950.9116	502
2953.5818	458
2956.2524	449
2958.9207	471
2961.5879	473
2964.2544	476
2966.9197	469
2969.5859	461
2972.2498	457
2974.9124	420
2977.5745	453
2980.2354	447
2982.8955	450
2985.5547	454
2988.2131	446
2990.8706	441
2993.5271	431
2996.1829	450
2998.8376	444
3001.4915	433
3004.1445	441
3006.7966	449
3009.4478	461
3012.0981	430
3014.7476	435
3017.396	455
3020.0437	430
3022.6904	441
3025.3364	452
3027.9812	416
3030.6255	459
3033.2686	448
3035.9094	445
3038.5508	437
3041.1914	453
3043.8311	458
3046.47	451
3049.1062	408
3051.7432	428
3054.3794	436
3057.0146	428
3059.6475	452
3062.281	421
3064.9136	418
3067.5454	417
3070.1746	438
3072.8047	447
3075.4336	445
3078.0603	446
3080.6877	433
3083.3127	410
3085.9382	412
3088.563	435
3091.1853	407
3093.8081	451
3096.4287	437
3099.05	434
3101.6687	422
3104.2881	424
3106.9067	435
3109.5229	449
3112.1382	438
3114.7542	397
3117.3679	402
3119.9819	422
3122.5938	397
3125.2063	423
3127.8164	415
3130.427	434
3133.0354	389
3135.6431	421
3138.251	402
3140.8567	439
3143.4617	424
3146.0671	423
3148.6704	440
3151.2727	459
3153.874	407
3156.4761	424
3159.0757	416
3161.6746	425
3164.2725	432
3166.8711	386
3169.4673	413
3172.0627	399
3174.6572	441
3177.251	392
3179.8452	413
3182.437	396
3185.0281	410
3187.6184	422
3190.2078	456
3192.7961	438
3195.3838	411
3197.9705	379
3200.5564	376
3203.1416	409
3205.7258	423
3208.3091	383
3210.8916	395
3213.4731	417
3216.054	413
3218.6338	431
3221.2129	462
3223.791	447
3226.3684	408
3228.9451	460
3231.5205	488
3234.0955	548
3236.6694	624
3239.241	739
3241.8132	868
3244.3845	966
3246.9551	1056
3249.5249	1105
3252.0938	1145
3254.6602	997
3257.2273	891
3259.7937	802
3262.3591	681
3264.9224	582
3267.4861	548
3270.0488	481
3272.6096	464
3275.1707	415
3277.7312	378
3280.2891	384
3282.8479	419
3285.4058	385
3287.9612	382
3290.5173	388
3293.0713	368
3295.6257	377
3298.1794	360
3300.7307	390
3303.2827	381
3305.8323	370
3308.3826	378
3310.9304	363
3313.479	367
3316.0254	341
3318.5723	355
3321.1169	362
3323.6606	364
3326.2051	345
3328.7471	338
3331.2898	311
3333.8303	370
3336.3699	364
3338.9102	357
3341.448	357
3343.9851	356
3346.5229	347
3349.0583	371
3351.593	353
3354.1282	367
3356.6611	353
3359.1931	324
3361.7244	370
3364.2549	406
3366.7859	354
3369.3147	358
3371.8428	355
3374.3699	347
3376.8962	351
3379.4216	343
3381.9478	354
3384.4714	360
3386.9946	383
3389.5166	357
3392.0381	347
3394.5586	378
3397.0781	329
3399.5972	352
3402.1152	320
3404.6323	351
3407.1487	360
3409.6643	343
3412.179	351
3414.6931	350
3417.2061	352
3419.7185	350
3422.2297	337
3424.7405	373
3427.2502	362
3429.7578	380
3432.2661	350
3434.7734	353
3437.28	343
3439.7856	358
3442.2905	356
3444.7932	358
3447.2966	355
3449.7991	342
3452.3008	337
3454.8	365
3457.3	351
3459.7993	350
3462.2961	334
3464.7937	363
3467.2905	346
3469.7866	320
3472.2803	313
3474.7747	328
3477.2666	387
3479.7593	348
3482.2512	362
3484.741	330
3487.2312	303
3489.7192	338
3492.2078	312
3494.6941	328
3497.1812	314
3499.666	325
3502.1514	321
3504.6345	320
3507.1184	319
3509.6001	324
3512.0823	318
3514.5623	318
3517.0413	327
3519.521	300
3521.9985	324
3524.4768	322
3526.9526	305
3529.4277	318
3531.9036	354
3534.3772	338
3536.8499	318
3539.3218	317
3541.7944	352
3544.2646	339
3546.7341	335
3549.2029	327
3551.6721	325
3554.1394	324
3556.6057	324
3559.0713	323
3561.5359	329
3563.9998	336
3566.4644	301
3568.9268	317
3571.3884	332
3573.8491	319
3576.3091	322
3578.7681	350
3581.2266	323
3583.6841	299
3586.1409	319
3588.5969	313
3591.052	310
3593.5063	321
3595.96	344
3598.4128	318
3600.865	325
3603.3162	339
3605.7666	301
3608.2161	308
3610.665	302
3613.1118	290
3615.5591	300
3618.0054	318
3620.4512	299
3622.896	315
3625.3401	297
3627.7822	304
3630.2246	285
3632.6665	323
3635.1074	283
3637.5461	298
3639.9856	296
3642.4243	282
3644.8606	303
3647.2979	319
3649.7341	299
3652.1682	289
3654.6028	309
3657.0366	285
3659.4685	306
3661.9009	282
