672.79272	2251.7754
676.3017	2355.5059
679.80933	2163.3201
683.31555	1921.2273
686.81848	1664.1954
690.32202	1433.323
693.82422	1367.5762
697.32507	970.9649
700.82458	890.49945
704.32068	739.14569
707.8175	553.00201
711.31293	275.03244
714.80701	303.24786
718.29974	153.65787
721.78912	181.23141
725.27917	52.059296
728.76788	15.109822
732.25519	90.390968
735.7392	106.87537
739.22388	28.648829
742.70715	-3.3201711
746.18713	9.9418936
749.66772	3.5169566
753.14703	41.377892
756.62299	47.495686
760.09955	229.95079
763.57483	210.71695
767.04675	254.76605
770.51935	400.17706
773.9906	430.92242
777.4585	664.97601
780.92706	432.41425
784.39435	690.21149
787.85822	773.34033
791.32281	677.87689
794.78406	1025.7618
798.24597	1130.0679
801.70459	1117.7388
805.16382	1208.8436
808.6217	1230.3586
812.07635	1460.2622
815.53156	1617.6191
818.98352	1719.3792
822.43616	1566.6077
825.88544	1685.2518
829.33539	1731.3774
832.78204	1929.9335
836.22937	1740.9836
839.67334	1613.4771
843.11804	1568.4779
846.55939	1396.9353
849.99945	1505.8848
853.44012	1394.3579
856.87756	1489.309
860.31561	1306.7953
863.75043	1448.7722
867.18585	1531.2959
870.61798	1525.3215
874.04883	1518.8812
877.48029	1610.0045
880.90851	1611.6486
884.33539	1709.8429
887.76294	1753.6176
891.18726	1806.9304
894.61218	1825.8333
898.03381	1806.2848
901.45416	1989.3146
904.87323	2061.9277
908.29291	2123.1509
911.70935	2214.9453
915.12445	2399.3379
918.54022	2396.3557
921.95276	2626.9602
925.36395	2919.1777
928.77386	3365.0134
932.18445	3971.4932
935.59174	5852.5791
938.99774	8808.2969
942.40247	12219.652
945.8078	16168.669
949.20996	18518.313
952.61078	19028.604
956.01031	18475.553
959.40851	18163.158
962.80542	18291.428
966.203	18241.385
969.59735	18314.994
972.99042	18680.279
976.3822	18834.244
979.77264	18812.893
983.16187	18949.23
986.54974	18712.258
989.93634	18275.982
993.32361	16736.426
996.70764	13779.553
1000.0903	10525.388
1003.4718	8009.9341
1006.852	6496.1948
1010.2309	5618.1733
1013.6085	5130.8735
1016.9848	4420.2998
1020.3598	3851.4539
1023.7336	3260.3408
1027.1061	2908.9634
1030.4773	2360.3247
1033.8472	1834.428
1037.2158	1550.2772
1040.5831	1155.8746
1043.9492	683.22443
1047.3141	591.32971
1050.6776	455.19275
1054.0399	349.81741
1057.4009	289.20587
1060.7587	243.34743
1064.1171	213.27341
1067.4742	184.97292
1070.8302	166.44882
1074.1848	92.703087
1077.5381	186.73851
1080.8903	157.5596
1084.2411	-0.83266503
1087.5886	52.550854
1090.937	94.741791
1094.2839	137.72653
1097.6298	53.510197
1100.9742	124.09367
1104.3175	82.480286
1107.6575	80.658821
1110.9982	122.65849
1114.3376	178.46869
1117.6758	164.091
1121.0109	134.51688
1124.3466	39.772182
1127.6809	225.84662
1131.014	145.74323
1134.344	158.45216
1137.6747	149.99991
1141.004	206.3757
1144.3302	130.57065
1147.6571	239.61057
1150.9827	151.48492
1154.3052	74.185707
1157.6283	85.736656
1160.9501	100.12817
1164.2688	148.35239
1167.5881	166.43248
1170.9063	155.35973
1174.2212	150.125
1177.5369	97.752304
1180.8494	76.221527
1184.1625	141.5556
1187.4742	56.74543
1190.7831	118.78416
1194.0924	86.692184
1197.3987	99.45208
1200.7056	108.08521
1204.0093	102.5731
1207.3137	88.938065
1210.615	128.16121
1213.9169	162.26389
1217.2157	180.22874
1220.5151	214.07614
1223.8115	0.78893799
1227.1084	64.386612
1230.4023	142.85345
1233.6968	66.208015
1236.9882	177.4342
1240.2783	75.542564
1243.5691	88.543388
1246.8568	87.420265
1250.1451	136.19225
1253.4303	87.84256
1256.7144	184.38251
1259.999	245.8214
1263.2805	186.14275
1266.5626	228.36552
1269.8418	159.47453
1273.1196	279.47845
1276.3981	278.38733
1279.6735	272.18576
1282.9476	244.88324
1286.2206	219.48097
1289.4941	311.98819
1292.7646	229.38982
1296.0339	272.69507
1299.304	378.91357
1302.5707	410.02887
1305.8363	337.05161
1309.1007	395.9823
1312.3658	567.83026
1315.6278	537.58002
1318.8885	715.24072
1322.1481	739.81354
1325.4064	987.29932
1328.6653	1290.7067
1331.9211	1565.0212
1335.1759	2183.2522
1338.4293	2827.3997
1341.6815	3917.4646
1344.9326	4863.4487
1348.1824	5660.3516
1351.4329	5835.1826
1354.6803	5564.9277
1357.9264	4761.5942
1361.1714	3722.1843
1364.4152	2920.6978
1367.6577	2069.1357
1370.8992	1613.4994
1374.1393	1329.7886
1377.3783	1019.0051
1380.616	917.14868
1383.8525	712.22101
1387.0879	664.22229
1390.322	610.15332
1393.5549	661.01477
1396.7866	509.80734
1400.0172	552.53217
1403.2466	493.18948
1406.4747	514.77997
1409.7017	389.3042
1412.9274	412.76288
1416.1519	342.15662
1419.3752	384.48648
1422.5974	265.75266
1425.8184	313.95572
1429.0381	262.09625
1432.2549	304.16901
1435.4723	424.18674
1438.6885	354.14365
1441.9034	271.04034
1445.1172	270.87735
1448.3298	347.65558
1451.5394	328.36911
1454.7496	387.03064
1457.9587	384.63498
1461.1666	301.18222
1464.3733	348.67288
1467.5769	302.10144
1470.7813	311.48074
1473.9844	295.80487
1477.1863	258.07431
1480.3851	307.28366
1483.5847	295.44543
1486.7831	284.55383
1489.9803	246.60971
1493.1746	266.60733
1496.3694	181.55862
1499.563	267.45825
1502.7537	223.30132
1505.9449	205.09917
1509.1351	275.84692
1512.3223	221.539
1515.51	360.18695
1518.6967	325.78589
1521.8802	338.33038
1525.0645	322.83176
1528.2457	302.27979
1531.4276	408.68533
1534.6084	413.04367
1537.7861	420.3494
1540.9645	403.61359
1544.1399	386.82623
1547.3159	448.99792
1550.489	461.11877
1553.6627	558.19922
1556.8335	633.22949
1560.0049	711.21991
1563.1732	827.16046
1566.3423	1032.062
1569.5083	1270.9143
1572.675	1639.7281
1575.8387	2144.4934
1579.0032	3039.2207
1582.1646	4354.8999
1585.3248	6320.5366
1588.4857	9707.1357
1591.6437	15018.688
1594.8022	21536.203
1597.9579	24895.672
1601.1124	20951.1
1604.2675	12973.489
1607.4197	6810.835
1610.5706	3858.1389
1613.7223	2504.408
1616.871	1801.6318
1620.0184	1589.8154
1623.1666	1312.964
1626.3119	1380.0685
1629.4559	1269.1334
1632.6006	1235.1636
1635.7424	995.15063
1638.8831	784.09869
1642.0225	682.008
1645.1626	512.88361
1648.2998	408.71655
1651.4358	450.51129
1654.5707	483.26831
1657.7043	260.98752
1660.8387	335.67383
1663.9702	337.31848
1667.1005	291.92581
1670.2296	337.49631
1673.3577	230.03011
1676.4845	203.5271
1679.6119	226.99181
1682.7366	142.41621
1685.86	239.80429
1688.9823	163.15648
1692.1035	155.47293
1695.2235	210.75351
1698.3424	159.99863
1701.4601	121.20817
1704.5767	126.38255
1707.6921	96.521927
1710.8065	62.626415
1713.9197	87.695885
1717.0317	154.73074
1720.1427	-0.26885778
1723.2524	122.69692
1726.3612	43.628757
1729.4688	49.526241
1732.5751	123.3895
1735.6804	68.219193
1738.7845	68.014908
1741.8876	106.77705
1744.9894	162.50545
1748.0902	136.20078
1751.1898	111.8626
1754.2883	166.49132
1757.3856	151.08679
1760.4801	203.64577
1763.5753	153.17586
1766.6693	216.67303
1769.7621	168.13741
1772.8539	146.5696
1775.9445	186.96921
1779.0322	146.33308
1782.1206	189.66838
1785.2079	83.971664
1788.2941	215.24304
1791.379	204.48236
1794.4612	208.68657
1797.5439	165.86261
1800.6256	239.00717
1803.7045	178.11694
1806.7839	238.19882
1809.8622	236.24925
1812.9395	209.26883
1816.0138	196.25386
1819.0887	134.2113
1822.1626	242.13794
1825.2335	172.03035
1828.3052	190.89568
1831.3757	158.73047
1834.4434	185.53137
1837.5117	266.30542
1840.5771	269.04578
1843.6432	227.75922
1846.7083	264.44281
1849.7703	250.09282
1852.8331	327.71658
1855.8929	267.30698
1858.9535	232.87105
1862.0112	286.40244
1865.0696	406.90738
1868.125	366.37964
1871.1812	352.82584
1874.2345	258.23978
1877.2885	318.62759
1880.3395	348.98312
1883.3912	314.31287
1886.4401	405.61057
1889.4896	266.88266
1892.5363	344.12286
1895.5836	249.33762
1898.6281	246.52071
1901.6715	263.67557
1904.7155	134.80476
1907.7567	207.90303
1910.7985	225.97577
1913.8375	246.01779
1916.8755	208.03181
1919.9139	169.02052
1922.9497	229.97882
1925.9844	186.90938
1929.0197	174.81506
1932.052	241.69023
1935.0834	229.53813
1938.1136	202.35864
1941.1447	232.15477
1944.1727	261.92078
1947.1997	202.6597
1950.2256	163.37157
1953.2522	267.05936
1956.2759	235.71744
1959.2986	267.34894
1962.3201	251.95361
1965.3406	261.53186
1968.3617	316.08621
1971.38	311.61157
1974.3973	315.11078
1977.4135	253.5836
1980.4285	233.03027
1983.4425	242.4511
1986.4554	200.84596
1989.469	281.21744
1992.4797	420.56064
1995.4894	341.87817
1998.498	321.17029
2001.5055	372.43674
2004.512	344.67795
2007.5173	331.89383
2010.5216	352.0845
2013.5248	341.25006
2016.527	316.39075
2019.5281	300.50647
2022.528	261.59717
2025.527	280.66348
2028.5248	244.70494
2031.5215	274.72183
2034.5172	333.71442
2037.5118	189.68263
2040.5055	196.62672
2043.4979	186.54646
2046.4894	220.44228
2049.478	194.31187
2052.4673	228.15981
2055.4556	152.9841
2058.4426	124.78453
2061.4287	143.56151
2064.4138	188.31512
2067.3977	153.0452
2070.3789	148.74998
2073.3608	154.43384
2076.3416	161.09444
2079.3213	190.73218
2082.2998	152.34685
2085.2759	95.937096
2088.2522	133.50626
2091.2278	130.05325
2094.2004	158.57558
2097.1738	171.07767
2100.146	126.55732
2103.1172	155.01491
2106.0857	108.44857
2109.0549	166.86237
2112.0229	165.25412
2114.9883	194.62228
2117.9541	230.9706
2120.9192	233.29773
2123.8813	167.60135
2126.844	177.88538
2129.804	169.14641
2132.7646	180.38831
2135.7244	173.60927
2138.6812	161.80733
2141.6387	106.98654
2144.5935	211.14333
2147.5491	181.28146
2150.5017	156.39716
2153.4551	94.49437
2156.4055	177.5694
2159.3569	143.62639
2162.3054	141.66144
2165.2544	114.67815
2168.2009	142.67365
2171.1479	128.65102
2174.0923	164.60715
2177.0374	111.54561
2179.9795	139.46283
2182.9224	34.362583
2185.8625	1.241587
2188.8015	19.101414
2191.7415	40.944294
2194.6785	58.766563
2197.6145	142.57022
2200.551	37.356777
2203.4849	65.123322
2206.418	-1.1281705
2209.3513	101.60331
2212.2822	66.315376
2215.2119	76.009293
2218.1423	50.686951
2221.0701	115.34534
2223.9968	157.98615
2226.9224	133.60925
2229.8486	147.21652
2232.7722	163.80502
2235.6948	137.3764
2238.6162	132.93054
2241.5366	239.4678
2244.4578	202.98975
2247.3762	193.49355
2250.2937	180.98079
2253.21	165.4514
2256.1252	194.9057
2259.0396	168.3438
2261.9546	201.76723
2264.8669	136.17326
2267.7781	202.56326
2270.6882	142.93753
2273.5974	170.29617
2276.5056	172.63933
2279.4126	195.96692
2282.3188	192.27943
2285.2239	194.57663
2288.1279	195.8588
2291.031	232.12605
2293.9329	154.37834
2296.834	166.61615
2299.7339	146.83922
2302.6328	154.04787
2305.5308	203.2422
2308.4277	143.42235
2311.3237	137.58841
2314.2185	113.74035
2317.1123	139.87845
2320.0051	119.00284
2322.8955	149.11256
2325.7861	107.20971
2328.676	132.29369
2331.5649	125.36441
2334.4526	153.42184
2337.3394	149.46629
2340.2251	156.49785
2343.1082	33.515461
2345.9919	125.52163
2348.8748	175.51527
2351.7563	206.49637
2354.6355	167.46417
2357.5151	161.42081
2360.3938	112.36542
2363.2715	122.2981
2366.1465	131.21785
2369.0222	141.12704
2371.8967	157.02452
2374.7688	176.90959
2377.6414	229.78432
2380.5132	182.64798
2383.3821	222.4993
2386.2517	199.34074
2389.1204	233.17136
2391.9863	254.99014
2394.853	238.79941
2397.7185	253.59804
2400.5815	270.38538
2403.4451	256.16336
2406.3062	291.9303
2409.1677	304.68814
2412.0266	353.43503
2414.8862	288.17319
2417.7434	340.90079
2420.6008	341.6196
2423.4558	316.32809
2426.3115	390.02829
2429.1646	453.71826
2432.0183	446.40018
2434.8691	452.07199
2437.7209	558.73608
2440.5698	631.39032
2443.4197	664.03711
2446.2666	850.67426
2449.1125	984.30298
2451.9592	1250.9244
2454.8035	1508.537
2457.6482	1567.1422
2460.4902	1815.7386
2463.3313	1861.3271
2466.1731	1828.9091
2469.0122	1802.4824
2471.8503	1683.0482
2474.6875	1500.6067
2477.5251	1427.1588
2480.3604	1295.7029
2483.1946	1162.24
2486.0278	1126.7703
2488.8616	972.29449
2491.6929	929.81122
2494.5232	927.32141
2497.3525	819.82513
2500.1824	761.3233
2503.0098	652.81445
2505.8359	666.29932
2508.6614	631.77832
2511.4858	617.2514
2514.3091	544.71857
2517.1316	568.18011
2519.9546	591.6369
2522.7751	544.0874
2525.5945	480.53244
2528.4131	517.97235
2531.2305	527.40698
2534.0471	587.83661
2536.8625	531.26123
2539.6772	518.68115
2542.491	503.09631
2545.3035	475.50671
2548.1152	478.91272
2550.9258	472.31415
2553.7356	504.7114
2556.5444	495.10443
2559.3521	533.49323
2562.1589	480.87811
2564.9648	485.25909
2567.7698	567.63623
2570.5737	512.0097
2573.375	540.37866
2576.177	522.745
2578.978	523.10791
2581.7778	578.46735
2584.5769	584.82373
2587.375	595.17694
2590.1724	583.52728
2592.9668	645.87372
2595.762	686.21814
2598.5562	650.55981
2601.3496	723.89899
2604.1404	830.23474
2606.9316	857.56879
2609.7219	876.90045
2612.5115	979.22992
2615.2983	1031.5564
2618.0857	1183.8816
2620.8723	1272.2048
2623.658	1301.5261
2626.4409	1509.8447
2629.2246	1797.1625
2632.0059	1989.4779
2634.7876	2202.7925
2637.5684	2680.1055
2640.3464	2857.4165
2643.1255	3479.7271
2645.9033	3986.0361
2648.6787	4715.3438
2651.4548	5500.6509
2654.2283	6580.9561
2657.0024	7952.2612
2659.7739	9477.5654
2662.5461	11574.869
2665.3157	13679.171
2668.0862	16633.475
2670.8538	19431.775
2673.6223	22676.076
2676.3882	26479.377
2679.1545	30133.68
2681.9185	33363.98
2684.6831	35852.281
2687.4453	37230.582
2690.2063	37419.883
2692.968	35789.184
2695.7273	33073.484
2698.4873	29759.785
2701.2446	25635.086
2704.001	21791.389
2706.7581	18185.691
2709.5125	14976.994
2712.2661	12231.298
2715.0186	9981.6025
2717.772	8371.9082
2720.5227	7022.2144
2723.2725	5910.5215
2726.0229	4818.8301
2728.7708	4219.1392
2731.5178	3641.4495
2734.2637	3125.7607
2737.0088	2711.0732
2739.7546	2387.3879
2742.4978	2099.7031
2745.24	1911.0199
2747.9814	1641.3381
2750.7219	1446.6581
2753.4612	1334.9794
2756.2	1276.3025
2758.939	1038.6281
2761.6758	1118.9547
2764.4114	909.28308
2767.1462	861.61353
2769.8801	803.9458
2772.613	753.28015
2775.345	633.61652
2778.0762	680.95508
2780.8062	616.29565
2783.5354	622.63855
2786.2637	520.9837
2788.991	501.33118
2791.7175	461.68109
2794.4429	432.03326
2797.1675	546.388
2799.8911	400.74521
2802.6138	392.10495
2805.334	393.46649
2808.0549	385.83154
2810.7749	363.19922
2813.4939	354.56961
2816.2119	373.94275
2818.9292	286.31879
2821.6453	320.69748
2824.3591	292.07843
2827.0735	303.46304
2829.7869	299.85056
2832.4995	314.24115
2835.2112	269.63477
2837.9202	340.03052
2840.6299	291.43024
2843.3389	257.83319
2846.0469	317.23926
2848.7522	249.6476
2851.4583	308.06003
2854.1636	265.47583
2856.8662	323.89395
2859.5696	317.31628
2862.272	274.74188
2864.9719	274.17007
2867.6726	277.60254
2870.3706	213.03745
2873.0696	291.47681
2875.7673	253.91949
2878.4626	227.36482
2881.1587	186.81456
2883.8523	281.267
2886.5466	242.72385
2889.2383	165.18332
2891.9307	233.64728
2894.6206	125.11399
2897.311	232.5851
2899.9993	273.05911
2902.688	258.53757
2905.3743	245.01884
2908.061	268.50455
2910.7456	336.99326
2913.4307	248.48642
2916.1133	268.98245
2918.7952	244.48228
2921.4775	318.98663
2924.1575	281.49387
2926.8379	251.00563
2929.5161	322.52042
2932.1934	345.03891
2934.8696	342.56116
2937.5466	299.08807
2940.2212	362.61789
2942.8948	374.15143
2945.5691	359.68967
2948.2407	371.23068
2950.9116	362.77557
2953.5818	334.32431
2956.2524	275.87762
2958.9207	259.43384
2961.5879	260.99374
2964.2544	244.55753
2966.9197	210.12486
2969.5859	188.69705
2972.2498	155.27208
2974.9124	218.85065
2977.5745	169.4332
2980.2354	99.019257
2982.8955	138.60912
2985.5547	151.20264
2988.2131	80.799927
2990.8706	70.400841
2993.5271	70.005356
2996.1829	91.613617
2998.8376	72.225456
3001.4915	56.840858
3004.1445	63.459949
3006.7966	77.082565
3009.4478	85.708687
3012.0981	69.338448
3014.7476	97.971672
3017.396	97.608345
3020.0437	58.248585
3022.6904	120.89223
3025.3364	67.539398
3027.9812	43.189762
3030.6255	106.84376
3033.2686	55.5009
3035.9094	70.160545
3038.5508	52.824352
3041.1914	34.491531
3043.8311	0.16189127
3046.47	95.835564
3049.1062	104.51127
3051.7432	18.191151
3054.3794	21.874245
3057.0146	35.560368
3059.6475	55.248535
3062.281	114.94076
3064.9136	30.635891
3067.5454	66.334068
3070.1746	31.033979
3072.8047	13.73796
3075.4336	125.44455
3078.0603	22.153065
3080.6877	66.865379
3083.3127	89.579376
3085.9382	66.296928
3088.563	75.017197
3091.1853	69.739014
3093.8081	81.464264
3096.4287	66.191124
3099.05	7.9214883
3101.6687	69.653046
3104.2881	58.38802
3106.9067	67.125381
3109.5229	69.863945
3112.1382	110.60464
3114.7542	57.348557
3117.3679	102.09368
3119.9819	41.841591
3122.5938	18.590605
3125.2063	61.342628
3127.8164	93.095482
3130.427	91.851074
3133.0354	27.607538
3135.6431	82.365807
3138.251	72.126488
3140.8567	31.887859
3143.4617	29.650862
3146.0671	67.41626
3148.6704	38.182171
3151.2727	39.94936
3153.874	41.717766
3156.4761	31.488491
3159.0757	85.259308
3161.6746	87.031311
3164.2725	69.804283
3166.8711	78.579308
3169.4673	74.354156
3172.0627	74.129929
3174.6572	55.906395
3177.251	88.683647
3179.8452	80.462456
3182.437	60.240734
3185.0281	90.019592
3187.6184	113.79895
3190.2078	141.57857
3192.7961	102.35838
3195.3838	77.138481
3197.9705	100.91862
3200.5564	103.69888
3203.1416	77.47921
3205.7258	74.259346
3208.3091	156.03922
3210.8916	146.81891
3213.4731	144.59818
3216.054	111.37711
3218.6338	119.15546
3221.2129	159.9333
3223.791	216.71042
3226.3684	194.48686
3228.9451	307.26254
3231.5205	388.03708
3234.0955	444.81088
3236.6694	545.5835
3239.241	812.35388
3241.8132	988.12402
3244.3845	1342.8928
3246.9551	1564.6603
3249.5249	1813.4263
3252.0938	2090.1904
3254.6602	2104.9521
3257.2273	1984.7129
3259.7937	1762.4719
3262.3591	1431.2289
3264.9224	1185.9828
3267.4861	829.73553
3270.0488	588.48596
3272.6096	493.23328
3275.1707	340.97891
3277.7312	294.72223
3280.2891	227.4617
3282.8479	154.19969
3285.4058	122.93475
3287.9612	88.665825
3290.5173	60.394955
3293.0713	138.12006
3295.6257	115.84283
3298.1794	129.56238
3300.7307	75.277435
3303.2827	80.990036
3305.8323	84.697945
3308.3826	51.403187
3310.9304	41.103535
3313.479	48.80101
3316.0254	47.493549
3318.5723	40.182838
3321.1169	37.866982
3323.6606	19.546694
3326.2051	53.222988
3328.7471	39.893665
3331.2898	28.560705
3333.8303	62.22208
3336.3699	58.878479
3338.9102	31.530907
3341.448	29.177185
3343.9851	-0.18167958
3346.5229	16.455141
3349.0583	48.085491
3351.593	29.710358
3354.1282	66.330406
3356.6611	-4.0561862
3359.1931	30.551243
3361.7244	53.152737
3364.2549	19.748177
3366.7859	9.3382139
3369.3147	71.921043
3371.8428	45.497478
3374.3699	21.067242
3376.8962	76.630371
3379.4216	37.186592
3381.9478	25.736841
3384.4714	50.279049
3386.9946	52.814293
3389.5166	54.34201
3392.0381	9.8625231
3394.5586	51.375416
3397.0781	72.880569
3399.5972	5.3781471
3402.1152	99.867744
3404.6323	89.349228
3407.1487	73.822632
3409.6643	74.287827
3412.179	83.744545
3414.6931	124.19294
3417.2061	79.632469
3419.7185	77.063431
3422.2297	40.485275
3424.7405	79.898293
3427.2502	71.302086
3429.7578	125.69584
3432.2661	92.08107
3434.7734	60.456688
3437.28	68.822701
3439.7856	94.178848
3442.2905	107.52514
3444.7932	117.86065
3447.2966	89.186813
3449.7991	52.502602
3452.3008	70.807999
3454.8	58.101997
3457.3	67.386101
3459.7993	79.659424
3462.2961	63.920971
3464.7937	77.172211
3467.2905	46.412262
3469.7866	84.640991
3472.2803	93.857445
3474.7747	42.063019
3477.2666	86.256058
3479.7593	80.437943
3482.2512	40.60783
3484.741	65.764908
3487.2312	72.910286
3489.7192	52.042595
3492.2078	41.162922
3494.6941	41.269917
3497.1812	49.364746
3499.666	14.445984
3502.1514	46.51466
3504.6345	69.569481
3507.1184	56.611546
3509.6001	36.639492
3512.0823	55.654289
3514.5623	74.654701
3517.0413	65.64109
3519.521	49.613987
3521.9985	78.572098
3524.4768	62.516418
3526.9526	-1.5544066
3529.4277	55.360134
3531.9036	51.260429
3534.3772	62.145267
3536.8499	45.014954
3539.3218	33.869438
3541.7944	60.709064
3544.2646	105.53262
3546.7341	20.340523
3549.2029	63.132648
3551.6721	50.909229
3554.1394	62.669342
3556.6057	75.413162
3559.0713	99.140617
3561.5359	113.85149
3563.9998	15.545699
3566.4644	75.223503
3568.9268	76.883957
3571.3884	83.527298
3573.8491	88.153336
3576.3091	80.761978
3578.7681	66.35302
3581.2266	62.926422
3583.6841	57.481934
3586.1409	37.019455
3588.5969	77.538841
3591.052	82.039886
3593.5063	65.522499
3595.96	47.986526
3598.4128	45.431816
3600.865	22.858219
3603.3162	106.26554
3605.7666	39.653683
3608.2161	86.022446
3610.665	43.371754
3613.1118	75.701233
3615.5591	71.011086
3618.0054	62.300972
3620.4512	57.570789
3622.896	25.820333
3625.3401	75.049484
3627.7822	16.257977
3630.2246	9.445858
3632.6665	41.6129
3635.1074	42.758915
3637.5461	8.8837013
3639.9856	58.987251
3642.4243	23.069328
3644.8606	51.129745
3647.2979	12.168429
3649.7341	51.185177
3652.1682	21.17985
3654.6028	-0.84771347
3657.0366	1.1023303
3659.4685	35.029869
3661.9009	35.934669
